[nm];[A];
;Sample 1;
190.0;0.1993
190.5;-0.1149
191.0;-0.1437
191.5;0.1554
192.0;0.0736
192.5;-0.0365
193.0;0.0885
193.5;0.3042
194.0;0.0436
194.5;-0.0932
195.0;0.0654
195.5;0.0677
196.0;-0.0434
196.5;0.0412
197.0;0.0629
197.5;-0.0219
198.0;0.0623
198.5;0.1132
199.0;0.0343
199.5;0.0473
200.0;0.0387
200.5;0.0531
201.0;0.0385
201.5;0.0342
202.0;0.0280
202.5;0.0246
203.0;0.0173
203.5;0.0123
204.0;0.0099
204.5;0.0043
205.0;0.0003
205.5;-0.0028
206.0;-0.0055
206.5;-0.0080
207.0;-0.0096
207.5;-0.0113
208.0;-0.0128
208.5;-0.0147
209.0;-0.0164
209.5;-0.0171
210.0;-0.0171
210.5;-0.0173
211.0;-0.0175
211.5;-0.0175
212.0;-0.0170
212.5;-0.0173
213.0;-0.0164
213.5;-0.0160
214.0;-0.0152
214.5;-0.0142
215.0;-0.0136
215.5;-0.0130
216.0;-0.0125
216.5;-0.0122
217.0;-0.0121
217.5;-0.0113
218.0;-0.0109
218.5;-0.0103
219.0;-0.0097
219.5;-0.0090
220.0;-0.0082
220.5;-0.0077
221.0;-0.0073
221.5;-0.0069
222.0;-0.0066
222.5;-0.0062
223.0;-0.0060
223.5;-0.0054
224.0;-0.0052
224.5;-0.0050
225.0;-0.0047
225.5;-0.0045
226.0;-0.0039
226.5;-0.0037
227.0;-0.0031
227.5;-0.0022
228.0;-0.0016
228.5;-0.0009
229.0;-0.0003
229.5;0.0005
230.0;0.0007
230.5;0.0011
231.0;0.0016
231.5;0.0025
232.0;0.0032
232.5;0.0038
233.0;0.0050
233.5;0.0057
234.0;0.0061
234.5;0.0070
235.0;0.0075
235.5;0.0079
236.0;0.0083
236.5;0.0081
237.0;0.0085
237.5;0.0087
238.0;0.0087
238.5;0.0089
239.0;0.0088
239.5;0.0089
240.0;0.0089
240.5;0.0082
241.0;0.0080
241.5;0.0083
242.0;0.0084
242.5;0.0079
243.0;0.0077
243.5;0.0075
244.0;0.0075
244.5;0.0079
245.0;0.0080
245.5;0.0078
246.0;0.0081
246.5;0.0082
247.0;0.0086
247.5;0.0087
248.0;0.0089
248.5;0.0095
249.0;0.0094
249.5;0.0098
250.0;0.0103
250.5;0.0103
251.0;0.0103
251.5;0.0109
252.0;0.0112
252.5;0.0111
253.0;0.0117
253.5;0.0115
254.0;0.0118
254.5;0.0119
255.0;0.0123
255.5;0.0124
256.0;0.0119
256.5;0.0118
257.0;0.0121
257.5;0.0121
258.0;0.0119
258.5;0.0124
259.0;0.0125
259.5;0.0125
260.0;0.0126
260.5;0.0119
261.0;0.0120
261.5;0.0118
262.0;0.0108
262.5;0.0108
263.0;0.0102
263.5;0.0100
264.0;0.0096
264.5;0.0094
265.0;0.0086
265.5;0.0083
266.0;0.0074
266.5;0.0073
267.0;0.0069
267.5;0.0065
268.0;0.0063
268.5;0.0062
269.0;0.0055
269.5;0.0050
270.0;0.0056
270.5;0.0050
271.0;0.0045
271.5;0.0044
272.0;0.0046
272.5;0.0047
273.0;0.0049
273.5;0.0040
274.0;0.0040
274.5;0.0045
275.0;0.0041
275.5;0.0049
276.0;0.0044
276.5;0.0046
277.0;0.0039
277.5;0.0036
278.0;0.0036
278.5;0.0036
279.0;0.0041
279.5;0.0032
280.0;0.0035
280.5;0.0041
281.0;0.0038
281.5;0.0040
282.0;0.0037
282.5;0.0037
283.0;0.0038
283.5;0.0043
284.0;0.0036
284.5;0.0040
285.0;0.0036
285.5;0.0041
286.0;0.0043
286.5;0.0044
287.0;0.0041
287.5;0.0036
288.0;0.0033
288.5;0.0033
289.0;0.0036
289.5;0.0025
290.0;0.0037
290.5;0.0036
291.0;0.0036
291.5;0.0036
292.0;0.0031
292.5;0.0024
293.0;0.0032
293.5;0.0029
294.0;0.0026
294.5;0.0031
295.0;0.0030
295.5;0.0029
296.0;0.0020
296.5;0.0028
297.0;0.0034
297.5;0.0038
298.0;0.0026
298.5;0.0034
299.0;0.0032
299.5;0.0037
300.0;0.0032
300.5;0.0029
301.0;0.0031
301.5;0.0037
302.0;0.0038
302.5;0.0039
303.0;0.0035
303.5;0.0033
304.0;0.0032
304.5;0.0043
305.0;0.0045
305.5;0.0039
306.0;0.0028
306.5;0.0030
307.0;0.0024
307.5;0.0037
308.0;0.0041
308.5;0.0024
309.0;0.0031
309.5;0.0040
310.0;0.0016
310.5;0.0021
311.0;0.0018
311.5;0.0022
312.0;0.0015
312.5;0.0020
313.0;-0.0001
313.5;0.0006
314.0;-0.0005
314.5;0.0006
315.0;0.0000
315.5;0.0006
316.0;-0.0007
316.5;-0.0008
317.0;-0.0006
317.5;-0.0007
318.0;-0.0018
318.5;-0.0011
319.0;-0.0014
319.5;-0.0022
320.0;-0.0042
320.5;-0.0019
321.0;-0.0010
321.5;-0.0021
322.0;-0.0005
322.5;-0.0016
323.0;-0.0005
323.5;-0.0018
324.0;-0.0030
324.5;-0.0017
325.0;-0.0040
325.5;-0.0019
326.0;-0.0025
326.5;-0.0013
327.0;-0.0031
327.5;-0.0028
328.0;-0.0012
328.5;-0.0027
329.0;-0.0032
329.5;-0.0015
330.0;-0.0025
330.5;-0.0019
331.0;-0.0024
331.5;-0.0020
332.0;-0.0011
332.5;-0.0018
333.0;-0.0019
333.5;-0.0030
334.0;-0.0021
334.5;-0.0005
335.0;-0.0016
335.5;-0.0011
336.0;-0.0007
336.5;-0.0009
337.0;-0.0006
337.5;-0.0012
338.0;-0.0006
338.5;-0.0005
339.0;0.0001
339.5;-0.0003
340.0;-0.0005
340.5;-0.0002
341.0;-0.0002
341.5;-0.0006
342.0;-0.0003
342.5;0.0006
343.0;-0.0008
343.5;0.0005
344.0;-0.0004
344.5;0.0006
345.0;0.0004
345.5;0.0008
346.0;0.0013
346.5;0.0012
347.0;0.0011
347.5;-0.0003
348.0;0.0010
348.5;0.0002
349.0;0.0010
349.5;0.0010
350.0;0.0018
350.5;0.0013
351.0;0.0017
351.5;0.0017
352.0;0.0023
352.5;0.0021
353.0;0.0025
353.5;0.0020
354.0;0.0023
354.5;0.0017
355.0;0.0019
355.5;0.0020
356.0;0.0018
356.5;0.0020
357.0;0.0018
357.5;0.0026
358.0;0.0024
358.5;0.0015
359.0;0.0014
359.5;0.0015
360.0;0.0017
360.5;0.0015
361.0;0.0010
361.5;0.0007
362.0;0.0011
362.5;0.0005
363.0;0.0003
363.5;0.0007
364.0;0.0004
364.5;-0.0001
365.0;0.0003
365.5;-0.0001
366.0;0.0003
366.5;0.0001
367.0;-0.0006
367.5;-0.0006
368.0;-0.0015
368.5;-0.0006
369.0;-0.0017
369.5;-0.0011
370.0;-0.0028
370.5;-0.0022
371.0;-0.0030
371.5;-0.0035
372.0;-0.0029
372.5;-0.0027
373.0;-0.0030
373.5;-0.0032
374.0;-0.0029
374.5;-0.0034
375.0;-0.0031
375.5;-0.0028
376.0;-0.0028
376.5;-0.0035
377.0;-0.0032
377.5;-0.0029
378.0;-0.0037
378.5;-0.0031
379.0;-0.0036
379.5;-0.0033
380.0;-0.0029
380.5;-0.0039
381.0;-0.0034
381.5;-0.0039
382.0;-0.0036
382.5;-0.0030
383.0;-0.0034
383.5;-0.0034
384.0;-0.0035
384.5;-0.0033
385.0;-0.0033
385.5;-0.0034
386.0;-0.0036
386.5;-0.0032
387.0;-0.0036
387.5;-0.0036
388.0;-0.0034
388.5;-0.0029
389.0;-0.0033
389.5;-0.0033
390.0;-0.0028
390.5;-0.0033
391.0;-0.0030
391.5;-0.0030
392.0;-0.0028
392.5;-0.0031
393.0;-0.0035
393.5;-0.0024
394.0;-0.0027
394.5;-0.0030
395.0;-0.0029
395.5;-0.0026
396.0;-0.0031
396.5;-0.0027
397.0;-0.0029
397.5;-0.0030
398.0;-0.0031
398.5;-0.0025
399.0;-0.0029
399.5;-0.0034
400.0;-0.0031
400.5;-0.0036
401.0;-0.0030
401.5;-0.0029
402.0;-0.0031
402.5;-0.0029
403.0;-0.0032
403.5;-0.0031
404.0;-0.0031
404.5;-0.0029
405.0;-0.0029
405.5;-0.0029
406.0;-0.0032
406.5;-0.0031
407.0;-0.0030
407.5;-0.0032
408.0;-0.0027
408.5;-0.0027
409.0;-0.0030
409.5;-0.0029
410.0;-0.0034
410.5;-0.0029
411.0;-0.0031
411.5;-0.0028
412.0;-0.0027
412.5;-0.0031
413.0;-0.0030
413.5;-0.0029
414.0;-0.0029
414.5;-0.0028
415.0;-0.0031
415.5;-0.0032
416.0;-0.0032
416.5;-0.0029
417.0;-0.0029
417.5;-0.0032
418.0;-0.0024
418.5;-0.0026
419.0;-0.0030
419.5;-0.0031
420.0;-0.0032
420.5;-0.0030
421.0;-0.0028
421.5;-0.0030
422.0;-0.0034
422.5;-0.0030
423.0;-0.0032
423.5;-0.0030
424.0;-0.0033
424.5;-0.0031
425.0;-0.0032
425.5;-0.0031
426.0;-0.0036
426.5;-0.0034
427.0;-0.0032
427.5;-0.0033
428.0;-0.0032
428.5;-0.0033
429.0;-0.0033
429.5;-0.0034
430.0;-0.0034
430.5;-0.0036
431.0;-0.0032
431.5;-0.0035
432.0;-0.0034
432.5;-0.0036
433.0;-0.0035
433.5;-0.0037
434.0;-0.0035
434.5;-0.0035
435.0;-0.0037
435.5;-0.0037
436.0;-0.0036
436.5;-0.0036
437.0;-0.0039
437.5;-0.0037
438.0;-0.0038
438.5;-0.0038
439.0;-0.0036
439.5;-0.0036
440.0;-0.0036
440.5;-0.0038
441.0;-0.0041
441.5;-0.0038
442.0;-0.0036
442.5;-0.0037
443.0;-0.0038
443.5;-0.0038
444.0;-0.0035
444.5;-0.0035
445.0;-0.0037
445.5;-0.0034
446.0;-0.0038
446.5;-0.0039
447.0;-0.0035
447.5;-0.0035
448.0;-0.0035
448.5;-0.0030
449.0;-0.0036
449.5;-0.0038
450.0;-0.0034
450.5;-0.0036
451.0;-0.0035
451.5;-0.0035
452.0;-0.0032
452.5;-0.0034
453.0;-0.0034
453.5;-0.0034
454.0;-0.0033
454.5;-0.0033
455.0;-0.0032
455.5;-0.0031
456.0;-0.0034
456.5;-0.0030
457.0;-0.0031
457.5;-0.0035
458.0;-0.0031
458.5;-0.0031
459.0;-0.0029
459.5;-0.0028
460.0;-0.0027
460.5;-0.0027
461.0;-0.0028
461.5;-0.0029
462.0;-0.0027
462.5;-0.0026
463.0;-0.0024
463.5;-0.0027
464.0;-0.0024
464.5;-0.0027
465.0;-0.0026
465.5;-0.0025
466.0;-0.0024
466.5;-0.0024
467.0;-0.0021
467.5;-0.0021
468.0;-0.0022
468.5;-0.0025
469.0;-0.0023
469.5;-0.0020
470.0;-0.0018
470.5;-0.0014
471.0;-0.0014
471.5;-0.0014
472.0;-0.0013
472.5;-0.0012
473.0;-0.0012
473.5;-0.0010
474.0;-0.0009
474.5;-0.0010
475.0;-0.0008
475.5;-0.0008
476.0;-0.0007
476.5;-0.0006
477.0;-0.0005
477.5;-0.0005
478.0;-0.0004
478.5;-0.0002
479.0;-0.0002
479.5;-0.0001
480.0;-0.0001
480.5;0.0000
481.0;0.0002
481.5;0.0002
482.0;0.0003
482.5;0.0003
483.0;0.0005
483.5;0.0005
484.0;0.0008
484.5;0.0007
485.0;0.0011
485.5;0.0012
486.0;0.0013
486.5;0.0015
487.0;0.0017
487.5;0.0018
488.0;0.0019
488.5;0.0021
489.0;0.0023
489.5;0.0026
490.0;0.0029
490.5;0.0030
491.0;0.0032
491.5;0.0034
492.0;0.0035
492.5;0.0038
493.0;0.0042
493.5;0.0044
494.0;0.0048
494.5;0.0048
495.0;0.0052
495.5;0.0055
496.0;0.0057
496.5;0.0060
497.0;0.0063
497.5;0.0066
498.0;0.0069
498.5;0.0071
499.0;0.0074
499.5;0.0079
500.0;0.0081
500.5;0.0084
501.0;0.0088
501.5;0.0092
502.0;0.0093
502.5;0.0096
503.0;0.0100
503.5;0.0102
504.0;0.0104
504.5;0.0107
505.0;0.0110
505.5;0.0112
506.0;0.0116
506.5;0.0117
507.0;0.0120
507.5;0.0122
508.0;0.0125
508.5;0.0125
509.0;0.0128
509.5;0.0130
510.0;0.0132
510.5;0.0134
511.0;0.0135
511.5;0.0138
512.0;0.0138
512.5;0.0139
513.0;0.0141
513.5;0.0142
514.0;0.0144
514.5;0.0145
515.0;0.0146
515.5;0.0148
516.0;0.0150
516.5;0.0152
517.0;0.0153
517.5;0.0154
518.0;0.0156
518.5;0.0159
519.0;0.0162
519.5;0.0165
520.0;0.0167
520.5;0.0171
521.0;0.0175
521.5;0.0178
522.0;0.0180
522.5;0.0186
523.0;0.0190
523.5;0.0196
524.0;0.0199
524.5;0.0205
525.0;0.0210
525.5;0.0217
526.0;0.0223
526.5;0.0230
527.0;0.0236
527.5;0.0245
528.0;0.0250
528.5;0.0258
529.0;0.0266
529.5;0.0274
530.0;0.0282
530.5;0.0291
531.0;0.0300
531.5;0.0310
532.0;0.0319
532.5;0.0329
533.0;0.0338
533.5;0.0348
534.0;0.0358
534.5;0.0368
535.0;0.0377
535.5;0.0387
536.0;0.0397
536.5;0.0406
537.0;0.0415
537.5;0.0424
538.0;0.0432
538.5;0.0441
539.0;0.0449
539.5;0.0457
540.0;0.0465
540.5;0.0471
541.0;0.0477
541.5;0.0484
542.0;0.0489
542.5;0.0493
543.0;0.0497
543.5;0.0502
544.0;0.0503
544.5;0.0505
545.0;0.0507
545.5;0.0508
546.0;0.0507
546.5;0.0505
547.0;0.0504
547.5;0.0501
548.0;0.0498
548.5;0.0493
549.0;0.0488
549.5;0.0482
550.0;0.0476
550.5;0.0469
551.0;0.0460
551.5;0.0453
552.0;0.0443
552.5;0.0433
553.0;0.0423
553.5;0.0412
554.0;0.0401
554.5;0.0389
555.0;0.0376
555.5;0.0365
556.0;0.0353
556.5;0.0339
557.0;0.0326
557.5;0.0314
558.0;0.0301
558.5;0.0288
559.0;0.0274
559.5;0.0262
560.0;0.0249
560.5;0.0236
561.0;0.0222
561.5;0.0211
562.0;0.0198
562.5;0.0186
563.0;0.0175
563.5;0.0164
564.0;0.0153
564.5;0.0143
565.0;0.0133
565.5;0.0123
566.0;0.0114
566.5;0.0104
567.0;0.0096
567.5;0.0088
568.0;0.0080
568.5;0.0074
569.0;0.0066
569.5;0.0060
570.0;0.0054
570.5;0.0047
571.0;0.0042
571.5;0.0037
572.0;0.0032
572.5;0.0027
573.0;0.0023
573.5;0.0020
574.0;0.0015
574.5;0.0012
575.0;0.0009
575.5;0.0005
576.0;0.0002
576.5;0.0000
577.0;-0.0003
577.5;-0.0005
578.0;-0.0007
578.5;-0.0010
579.0;-0.0011
579.5;-0.0012
580.0;-0.0015
580.5;-0.0016
581.0;-0.0017
581.5;-0.0019
582.0;-0.0018
582.5;-0.0021
583.0;-0.0021
583.5;-0.0023
584.0;-0.0023
584.5;-0.0025
585.0;-0.0026
585.5;-0.0026
586.0;-0.0027
586.5;-0.0027
587.0;-0.0028
587.5;-0.0028
588.0;-0.0029
588.5;-0.0029
589.0;-0.0030
589.5;-0.0030
590.0;-0.0030
590.5;-0.0030
591.0;-0.0031
591.5;-0.0031
592.0;-0.0031
592.5;-0.0031
593.0;-0.0031
593.5;-0.0031
594.0;-0.0031
594.5;-0.0031
595.0;-0.0031
595.5;-0.0030
596.0;-0.0031
596.5;-0.0031
597.0;-0.0031
597.5;-0.0032
598.0;-0.0031
598.5;-0.0032
599.0;-0.0032
599.5;-0.0031
600.0;-0.0032
600.5;-0.0031
601.0;-0.0031
601.5;-0.0031
602.0;-0.0032
602.5;-0.0031
603.0;-0.0031
603.5;-0.0032
604.0;-0.0031
604.5;-0.0032
605.0;-0.0030
605.5;-0.0031
606.0;-0.0031
606.5;-0.0031
607.0;-0.0030
607.5;-0.0030
608.0;-0.0031
608.5;-0.0029
609.0;-0.0030
609.5;-0.0030
610.0;-0.0029
610.5;-0.0030
611.0;-0.0029
611.5;-0.0029
612.0;-0.0029
612.5;-0.0030
613.0;-0.0029
613.5;-0.0029
614.0;-0.0029
614.5;-0.0029
615.0;-0.0029
615.5;-0.0028
616.0;-0.0029
616.5;-0.0029
617.0;-0.0029
617.5;-0.0029
618.0;-0.0029
618.5;-0.0029
619.0;-0.0029
619.5;-0.0029
620.0;-0.0029
620.5;-0.0029
621.0;-0.0029
621.5;-0.0029
622.0;-0.0029
622.5;-0.0029
623.0;-0.0029
623.5;-0.0029
624.0;-0.0030
624.5;-0.0029
625.0;-0.0030
625.5;-0.0030
626.0;-0.0030
626.5;-0.0030
627.0;-0.0029
627.5;-0.0029
628.0;-0.0030
628.5;-0.0029
629.0;-0.0029
629.5;-0.0030
630.0;-0.0030
630.5;-0.0030
631.0;-0.0030
631.5;-0.0029
632.0;-0.0029
632.5;-0.0029
633.0;-0.0029
633.5;-0.0029
634.0;-0.0030
634.5;-0.0029
635.0;-0.0030
635.5;-0.0029
636.0;-0.0029
636.5;-0.0029
637.0;-0.0028
637.5;-0.0029
638.0;-0.0029
638.5;-0.0029
639.0;-0.0029
639.5;-0.0029
640.0;-0.0028
640.5;-0.0029
641.0;-0.0029
641.5;-0.0029
642.0;-0.0028
642.5;-0.0028
643.0;-0.0029
643.5;-0.0028
644.0;-0.0028
644.5;-0.0029
645.0;-0.0028
645.5;-0.0027
646.0;-0.0028
646.5;-0.0028
647.0;-0.0027
647.5;-0.0028
648.0;-0.0028
648.5;-0.0028
649.0;-0.0027
649.5;-0.0028
650.0;-0.0027
650.5;-0.0028
651.0;-0.0027
651.5;-0.0027
652.0;-0.0027
652.5;-0.0026
653.0;-0.0025
653.5;-0.0026
654.0;-0.0026
654.5;-0.0026
655.0;-0.0025
655.5;-0.0026
656.0;-0.0026
656.5;-0.0025
657.0;-0.0025
657.5;-0.0026
658.0;-0.0025
658.5;-0.0026
659.0;-0.0025
659.5;-0.0025
660.0;-0.0025
660.5;-0.0025
661.0;-0.0025
661.5;-0.0026
662.0;-0.0024
662.5;-0.0025
663.0;-0.0026
663.5;-0.0026
664.0;-0.0025
664.5;-0.0025
665.0;-0.0025
665.5;-0.0025
666.0;-0.0026
666.5;-0.0026
667.0;-0.0026
667.5;-0.0024
668.0;-0.0025
668.5;-0.0026
669.0;-0.0026
669.5;-0.0026
670.0;-0.0026
670.5;-0.0027
671.0;-0.0027
671.5;-0.0027
672.0;-0.0027
672.5;-0.0028
673.0;-0.0028
673.5;-0.0028
674.0;-0.0028
674.5;-0.0028
675.0;-0.0028
675.5;-0.0028
676.0;-0.0028
676.5;-0.0029
677.0;-0.0029
677.5;-0.0030
678.0;-0.0029
678.5;-0.0030
679.0;-0.0029
679.5;-0.0029
680.0;-0.0030
680.5;-0.0029
681.0;-0.0030
681.5;-0.0030
682.0;-0.0029
682.5;-0.0030
683.0;-0.0030
683.5;-0.0031
684.0;-0.0030
684.5;-0.0030
685.0;-0.0030
685.5;-0.0030
686.0;-0.0030
686.5;-0.0029
687.0;-0.0030
687.5;-0.0031
688.0;-0.0030
688.5;-0.0030
689.0;-0.0030
689.5;-0.0031
690.0;-0.0030
690.5;-0.0029
691.0;-0.0030
691.5;-0.0029
692.0;-0.0030
692.5;-0.0030
693.0;-0.0030
693.5;-0.0030
694.0;-0.0029
694.5;-0.0028
695.0;-0.0028
695.5;-0.0029
696.0;-0.0028
696.5;-0.0028
697.0;-0.0028
697.5;-0.0027
698.0;-0.0027
698.5;-0.0028
699.0;-0.0028
699.5;-0.0028
700.0;-0.0029
700.5;-0.0028
701.0;-0.0028
701.5;-0.0028
702.0;-0.0028
702.5;-0.0028
703.0;-0.0029
703.5;-0.0028
704.0;-0.0028
704.5;-0.0028
705.0;-0.0028
705.5;-0.0027
706.0;-0.0028
706.5;-0.0028
707.0;-0.0027
707.5;-0.0027
708.0;-0.0026
708.5;-0.0027
709.0;-0.0027
709.5;-0.0028
710.0;-0.0027
710.5;-0.0028
711.0;-0.0027
711.5;-0.0028
712.0;-0.0029
712.5;-0.0028
713.0;-0.0028
713.5;-0.0029
714.0;-0.0029
714.5;-0.0029
715.0;-0.0029
715.5;-0.0028
716.0;-0.0029
716.5;-0.0028
717.0;-0.0029
717.5;-0.0029
718.0;-0.0029
718.5;-0.0029
719.0;-0.0030
719.5;-0.0029
720.0;-0.0029
720.5;-0.0029
721.0;-0.0030
721.5;-0.0030
722.0;-0.0029
722.5;-0.0029
723.0;-0.0029
723.5;-0.0030
724.0;-0.0029
724.5;-0.0029
725.0;-0.0029
725.5;-0.0029
726.0;-0.0029
726.5;-0.0029
727.0;-0.0029
727.5;-0.0029
728.0;-0.0029
728.5;-0.0029
729.0;-0.0029
729.5;-0.0029
730.0;-0.0028
730.5;-0.0028
731.0;-0.0029
731.5;-0.0029
732.0;-0.0028
732.5;-0.0028
733.0;-0.0027
733.5;-0.0027
734.0;-0.0028
734.5;-0.0027
735.0;-0.0029
735.5;-0.0028
736.0;-0.0029
736.5;-0.0028
737.0;-0.0028
737.5;-0.0028
738.0;-0.0027
738.5;-0.0028
739.0;-0.0028
739.5;-0.0028
740.0;-0.0028
740.5;-0.0027
741.0;-0.0027
741.5;-0.0028
742.0;-0.0028
742.5;-0.0027
743.0;-0.0027
743.5;-0.0027
744.0;-0.0026
744.5;-0.0027
745.0;-0.0027
745.5;-0.0026
746.0;-0.0026
746.5;-0.0027
747.0;-0.0027
747.5;-0.0026
748.0;-0.0026
748.5;-0.0026
749.0;-0.0027
749.5;-0.0026
750.0;-0.0026
750.5;-0.0028
751.0;-0.0028
751.5;-0.0027
752.0;-0.0027
752.5;-0.0026
753.0;-0.0027
753.5;-0.0026
754.0;-0.0026
754.5;-0.0025
755.0;-0.0026
755.5;-0.0026
756.0;-0.0027
756.5;-0.0027
757.0;-0.0027
757.5;-0.0027
758.0;-0.0027
758.5;-0.0027
759.0;-0.0027
759.5;-0.0026
760.0;-0.0027
760.5;-0.0026
761.0;-0.0027
761.5;-0.0027
762.0;-0.0026
762.5;-0.0026
763.0;-0.0027
763.5;-0.0028
764.0;-0.0027
764.5;-0.0027
765.0;-0.0028
765.5;-0.0028
766.0;-0.0027
766.5;-0.0027
767.0;-0.0028
767.5;-0.0028
768.0;-0.0028
768.5;-0.0027
769.0;-0.0028
769.5;-0.0028
770.0;-0.0026
770.5;-0.0026
771.0;-0.0026
771.5;-0.0027
772.0;-0.0027
772.5;-0.0027
773.0;-0.0028
773.5;-0.0028
774.0;-0.0028
774.5;-0.0028
775.0;-0.0028
775.5;-0.0028
776.0;-0.0028
776.5;-0.0027
777.0;-0.0028
777.5;-0.0028
778.0;-0.0028
778.5;-0.0028
779.0;-0.0027
779.5;-0.0028
780.0;-0.0027
780.5;-0.0027
781.0;-0.0028
781.5;-0.0027
782.0;-0.0029
782.5;-0.0027
783.0;-0.0027
783.5;-0.0027
784.0;-0.0027
784.5;-0.0026
785.0;-0.0027
785.5;-0.0027
786.0;-0.0027
786.5;-0.0025
787.0;-0.0027
787.5;-0.0026
788.0;-0.0025
788.5;-0.0025
789.0;-0.0026
789.5;-0.0025
790.0;-0.0025
790.5;-0.0024
791.0;-0.0025
791.5;-0.0024
792.0;-0.0025
792.5;-0.0024
793.0;-0.0023
793.5;-0.0023
794.0;-0.0023
794.5;-0.0023
795.0;-0.0022
795.5;-0.0022
796.0;-0.0021
796.5;-0.0020
797.0;-0.0021
797.5;-0.0020
798.0;-0.0021
798.5;-0.0019
799.0;-0.0020
799.5;-0.0019
800.0;-0.0019
800.5;-0.0019
801.0;-0.0018
801.5;-0.0019
802.0;-0.0019
802.5;-0.0019
803.0;-0.0020
803.5;-0.0020
804.0;-0.0019
804.5;-0.0020
805.0;-0.0021
805.5;-0.0020
806.0;-0.0020
806.5;-0.0020
807.0;-0.0021
807.5;-0.0020
808.0;-0.0021
808.5;-0.0020
809.0;-0.0020
809.5;-0.0019
810.0;-0.0020
810.5;-0.0019
811.0;-0.0020
811.5;-0.0020
812.0;-0.0019
812.5;-0.0021
813.0;-0.0021
813.5;-0.0021
814.0;-0.0020
814.5;-0.0020
815.0;-0.0021
815.5;-0.0020
816.0;-0.0021
816.5;-0.0022
817.0;-0.0021
817.5;-0.0021
818.0;-0.0022
818.5;-0.0021
819.0;-0.0021
819.5;-0.0021
820.0;-0.0021
820.5;-0.0021
821.0;-0.0021
821.5;-0.0020
822.0;-0.0021
822.5;-0.0021
823.0;-0.0022
823.5;-0.0022
824.0;-0.0022
824.5;-0.0024
825.0;-0.0023
825.5;-0.0025
826.0;-0.0025
826.5;-0.0025
827.0;-0.0026
827.5;-0.0027
828.0;-0.0027
828.5;-0.0027
829.0;-0.0027
829.5;-0.0027
830.0;-0.0028
830.5;-0.0027
831.0;-0.0027
831.5;-0.0027
832.0;-0.0027
832.5;-0.0027
833.0;-0.0027
833.5;-0.0027
834.0;-0.0027
834.5;-0.0026
835.0;-0.0026
835.5;-0.0025
836.0;-0.0026
836.5;-0.0026
837.0;-0.0026
837.5;-0.0026
838.0;-0.0026
838.5;-0.0025
839.0;-0.0025
839.5;-0.0025
840.0;-0.0026
840.5;-0.0025
841.0;-0.0025
841.5;-0.0026
842.0;-0.0026
842.5;-0.0025
843.0;-0.0026
843.5;-0.0026
844.0;-0.0026
844.5;-0.0026
845.0;-0.0026
845.5;-0.0027
846.0;-0.0027
846.5;-0.0027
847.0;-0.0027
847.5;-0.0027
848.0;-0.0027
848.5;-0.0027
849.0;-0.0027
849.5;-0.0027
850.0;-0.0027
850.5;-0.0028
851.0;-0.0027
851.5;-0.0028
852.0;-0.0027
852.5;-0.0027
853.0;-0.0028
853.5;-0.0027
854.0;-0.0028
854.5;-0.0028
855.0;-0.0028
855.5;-0.0027
856.0;-0.0028
856.5;-0.0027
857.0;-0.0028
857.5;-0.0028
858.0;-0.0028
858.5;-0.0028
859.0;-0.0028
859.5;-0.0029
860.0;-0.0028
860.5;-0.0028
861.0;-0.0027
861.5;-0.0027
862.0;-0.0028
862.5;-0.0028
863.0;-0.0028
863.5;-0.0028
864.0;-0.0028
864.5;-0.0028
865.0;-0.0028
865.5;-0.0028
866.0;-0.0027
866.5;-0.0028
867.0;-0.0029
867.5;-0.0028
868.0;-0.0028
868.5;-0.0028
869.0;-0.0027
869.5;-0.0028
870.0;-0.0028
870.5;-0.0027
871.0;-0.0028
871.5;-0.0029
872.0;-0.0028
872.5;-0.0028
873.0;-0.0028
873.5;-0.0028
874.0;-0.0028
874.5;-0.0028
875.0;-0.0028
875.5;-0.0029
876.0;-0.0028
876.5;-0.0029
877.0;-0.0029
877.5;-0.0028
878.0;-0.0029
878.5;-0.0029
879.0;-0.0028
879.5;-0.0029
880.0;-0.0029
880.5;-0.0029
881.0;-0.0028
881.5;-0.0029
882.0;-0.0029
882.5;-0.0029
883.0;-0.0029
883.5;-0.0029
884.0;-0.0029
884.5;-0.0029
885.0;-0.0029
885.5;-0.0030
886.0;-0.0029
886.5;-0.0029
887.0;-0.0030
887.5;-0.0029
888.0;-0.0029
888.5;-0.0030
889.0;-0.0029
889.5;-0.0029
890.0;-0.0030
890.5;-0.0030
891.0;-0.0030
891.5;-0.0030
892.0;-0.0030
892.5;-0.0030
893.0;-0.0029
893.5;-0.0030
894.0;-0.0029
894.5;-0.0029
895.0;-0.0029
895.5;-0.0028
896.0;-0.0029
896.5;-0.0029
897.0;-0.0029
897.5;-0.0028
898.0;-0.0029
898.5;-0.0029
899.0;-0.0029
899.5;-0.0029
900.0;-0.0029
900.5;-0.0029
901.0;-0.0029
901.5;-0.0030
902.0;-0.0029
902.5;-0.0029
903.0;-0.0029
903.5;-0.0030
904.0;-0.0029
904.5;-0.0030
905.0;-0.0030
905.5;-0.0030
906.0;-0.0029
906.5;-0.0030
907.0;-0.0030
907.5;-0.0030
908.0;-0.0030
908.5;-0.0029
909.0;-0.0029
909.5;-0.0030
910.0;-0.0030
910.5;-0.0029
911.0;-0.0030
911.5;-0.0030
912.0;-0.0030
912.5;-0.0029
913.0;-0.0030
913.5;-0.0029
914.0;-0.0030
914.5;-0.0031
915.0;-0.0030
915.5;-0.0030
916.0;-0.0030
916.5;-0.0030
917.0;-0.0030
917.5;-0.0030
918.0;-0.0030
918.5;-0.0030
919.0;-0.0030
919.5;-0.0030
920.0;-0.0031
920.5;-0.0030
921.0;-0.0030
921.5;-0.0030
922.0;-0.0030
922.5;-0.0030
923.0;-0.0030
923.5;-0.0030
924.0;-0.0030
924.5;-0.0030
925.0;-0.0030
925.5;-0.0029
926.0;-0.0030
926.5;-0.0030
927.0;-0.0030
927.5;-0.0029
928.0;-0.0030
928.5;-0.0029
929.0;-0.0030
929.5;-0.0029
930.0;-0.0029
930.5;-0.0029
931.0;-0.0029
931.5;-0.0028
932.0;-0.0029
932.5;-0.0028
933.0;-0.0028
933.5;-0.0029
934.0;-0.0029
934.5;-0.0029
935.0;-0.0029
935.5;-0.0029
936.0;-0.0028
936.5;-0.0028
937.0;-0.0028
937.5;-0.0028
938.0;-0.0027
938.5;-0.0027
939.0;-0.0027
939.5;-0.0027
940.0;-0.0027
940.5;-0.0026
941.0;-0.0026
941.5;-0.0026
942.0;-0.0026
942.5;-0.0026
943.0;-0.0026
943.5;-0.0026
944.0;-0.0026
944.5;-0.0025
945.0;-0.0026
945.5;-0.0025
946.0;-0.0025
946.5;-0.0025
947.0;-0.0025
947.5;-0.0024
948.0;-0.0024
948.5;-0.0024
949.0;-0.0024
949.5;-0.0023
950.0;-0.0023
950.5;-0.0022
951.0;-0.0023
951.5;-0.0022
952.0;-0.0021
952.5;-0.0021
953.0;-0.0020
953.5;-0.0019
954.0;-0.0019
954.5;-0.0018
955.0;-0.0018
955.5;-0.0017
956.0;-0.0016
956.5;-0.0016
957.0;-0.0016
957.5;-0.0015
958.0;-0.0014
958.5;-0.0014
959.0;-0.0014
959.5;-0.0013
960.0;-0.0013
960.5;-0.0013
961.0;-0.0013
961.5;-0.0012
962.0;-0.0012
962.5;-0.0011
963.0;-0.0011
963.5;-0.0011
964.0;-0.0011
964.5;-0.0010
965.0;-0.0010
965.5;-0.0010
966.0;-0.0009
966.5;-0.0009
967.0;-0.0009
967.5;-0.0008
968.0;-0.0009
968.5;-0.0008
969.0;-0.0007
969.5;-0.0007
970.0;-0.0007
970.5;-0.0006
971.0;-0.0005
971.5;-0.0006
972.0;-0.0005
972.5;-0.0005
973.0;-0.0005
973.5;-0.0005
974.0;-0.0004
974.5;-0.0003
975.0;-0.0003
975.5;-0.0003
976.0;-0.0002
976.5;-0.0001
977.0;-0.0001
977.5;-0.0001
978.0;-0.0001
978.5;0.0001
979.0;0.0000
979.5;0.0001
980.0;0.0000
980.5;0.0001
981.0;0.0002
981.5;0.0003
982.0;0.0003
982.5;0.0003
983.0;0.0004
983.5;0.0004
984.0;0.0005
984.5;0.0005
985.0;0.0006
985.5;0.0007
986.0;0.0007
986.5;0.0007
987.0;0.0007
987.5;0.0007
988.0;0.0008
988.5;0.0009
989.0;0.0009
989.5;0.0010
990.0;0.0011
990.5;0.0012
991.0;0.0012
991.5;0.0012
992.0;0.0013
992.5;0.0014
993.0;0.0015
993.5;0.0015
994.0;0.0016
994.5;0.0018
995.0;0.0018
995.5;0.0018
996.0;0.0019
996.5;0.0020
997.0;0.0021
997.5;0.0021
998.0;0.0022
998.5;0.0022
999.0;0.0024
999.5;0.0024
1000.0;0.0022
1000.5;0.0023
1001.0;0.0024
1001.5;0.0024
1002.0;0.0026
1002.5;0.0027
1003.0;0.0027
1003.5;0.0027
1004.0;0.0028
1004.5;0.0029
1005.0;0.0031
1005.5;0.0031
1006.0;0.0033
1006.5;0.0033
1007.0;0.0034
1007.5;0.0035
1008.0;0.0036
1008.5;0.0037
1009.0;0.0038
1009.5;0.0039
1010.0;0.0040
1010.5;0.0042
1011.0;0.0042
1011.5;0.0043
1012.0;0.0044
1012.5;0.0046
1013.0;0.0046
1013.5;0.0048
1014.0;0.0049
1014.5;0.0050
1015.0;0.0052
1015.5;0.0052
1016.0;0.0054
1016.5;0.0054
1017.0;0.0055
1017.5;0.0057
1018.0;0.0058
1018.5;0.0058
1019.0;0.0060
1019.5;0.0061
1020.0;0.0062
1020.5;0.0063
1021.0;0.0065
1021.5;0.0067
1022.0;0.0069
1022.5;0.0070
1023.0;0.0071
1023.5;0.0072
1024.0;0.0073
1024.5;0.0074
1025.0;0.0076
1025.5;0.0078
1026.0;0.0079
1026.5;0.0080
1027.0;0.0081
1027.5;0.0083
1028.0;0.0084
1028.5;0.0086
1029.0;0.0087
1029.5;0.0088
1030.0;0.0090
1030.5;0.0092
1031.0;0.0094
1031.5;0.0094
1032.0;0.0097
1032.5;0.0098
1033.0;0.0099
1033.5;0.0101
1034.0;0.0102
1034.5;0.0104
1035.0;0.0106
1035.5;0.0108
1036.0;0.0110
1036.5;0.0112
1037.0;0.0114
1037.5;0.0117
1038.0;0.0118
1038.5;0.0120
1039.0;0.0122
1039.5;0.0124
1040.0;0.0125
1040.5;0.0127
1041.0;0.0129
1041.5;0.0129
1042.0;0.0131
1042.5;0.0133
1043.0;0.0136
1043.5;0.0137
1044.0;0.0139
1044.5;0.0141
1045.0;0.0142
1045.5;0.0146
1046.0;0.0147
1046.5;0.0149
1047.0;0.0150
1047.5;0.0152
1048.0;0.0154
1048.5;0.0156
1049.0;0.0157
1049.5;0.0159
1050.0;0.0162
1050.5;0.0164
1051.0;0.0166
1051.5;0.0167
1052.0;0.0170
1052.5;0.0172
1053.0;0.0172
1053.5;0.0174
1054.0;0.0175
1054.5;0.0177
1055.0;0.0181
1055.5;0.0185
1056.0;0.0186
1056.5;0.0190
1057.0;0.0193
1057.5;0.0201
1058.0;0.0205
1058.5;0.0211
1059.0;0.0217
1059.5;0.0223
1060.0;0.0227
1060.5;0.0230
1061.0;0.0233
1061.5;0.0231
1062.0;0.0232
1062.5;0.0229
1063.0;0.0227
1063.5;0.0225
1064.0;0.0222
1064.5;0.0219
1065.0;0.0216
1065.5;0.0213
1066.0;0.0213
1066.5;0.0211
1067.0;0.0212
1067.5;0.0212
1068.0;0.0212
1068.5;0.0212
1069.0;0.0213
1069.5;0.0212
1070.0;0.0212
1070.5;0.0215
1071.0;0.0216
1071.5;0.0218
1072.0;0.0221
1072.5;0.0223
1073.0;0.0226
1073.5;0.0230
1074.0;0.0233
1074.5;0.0236
1075.0;0.0238
1075.5;0.0241
1076.0;0.0245
1076.5;0.0245
1077.0;0.0247
1077.5;0.0247
1078.0;0.0247
1078.5;0.0249
1079.0;0.0248
1079.5;0.0249
1080.0;0.0250
1080.5;0.0253
1081.0;0.0253
1081.5;0.0254
1082.0;0.0255
1082.5;0.0259
1083.0;0.0261
1083.5;0.0261
1084.0;0.0262
1084.5;0.0263
1085.0;0.0265
1085.5;0.0267
1086.0;0.0266
1086.5;0.0265
1087.0;0.0266
1087.5;0.0268
1088.0;0.0273
1088.5;0.0272
1089.0;0.0272
1089.5;0.0276
1090.0;0.0277
1090.5;0.0278
1091.0;0.0281
1091.5;0.0278
1092.0;0.0281
1092.5;0.0286
1093.0;0.0284
1093.5;0.0281
1094.0;0.0283
1094.5;0.0287
1095.0;0.0290
1095.5;0.0288
1096.0;0.0289
1096.5;0.0290
1097.0;0.0289
1097.5;0.0289
1098.0;0.0286
1098.5;0.0285
1099.0;0.0286
1099.5;0.0283
1100.0;0.0286
