[nm];[A];
;Sample 1;
190.0;-5.2824
190.5;-5.0785
191.0;8.0000
191.5;8.0000
192.0;-0.8095
192.5;-0.3868
193.0;1.1839
193.5;-0.2089
194.0;-4.3650
194.5;8.0000
195.0;0.0467
195.5;8.0000
196.0;-4.2606
196.5;0.0029
197.0;0.7079
197.5;0.0970
198.0;-4.1259
198.5;0.0138
199.0;8.0000
199.5;-0.0340
200.0;-0.4757
200.5;0.5943
201.0;0.0663
201.5;-4.1386
202.0;-0.1973
202.5;-0.6199
203.0;-4.4709
203.5;0.5571
204.0;0.4619
204.5;0.0565
205.0;-1.0989
205.5;0.3136
206.0;-0.3273
206.5;8.0000
207.0;0.5650
207.5;-0.8112
208.0;-0.1075
208.5;-0.4005
209.0;-4.2208
209.5;-0.1986
210.0;-4.2621
210.5;8.0000
211.0;0.5534
211.5;8.0000
212.0;0.2648
212.5;-0.1934
213.0;-4.5710
213.5;-0.6740
214.0;-0.3014
214.5;-0.3035
215.0;-4.5575
215.5;-0.2309
216.0;-4.5365
216.5;-4.6006
217.0;0.0374
217.5;0.1451
218.0;0.1834
218.5;0.6189
219.0;0.0276
219.5;8.0000
220.0;0.4282
220.5;0.1361
221.0;0.6761
221.5;1.5633
222.0;-4.3204
222.5;-0.0996
223.0;-0.2358
223.5;0.0073
224.0;0.1125
224.5;-0.6022
225.0;-0.6126
225.5;0.9607
226.0;0.6532
226.5;0.2251
227.0;-0.4329
227.5;8.0000
228.0;-0.1871
228.5;0.2235
229.0;-0.2455
229.5;-0.1782
230.0;-4.1216
230.5;8.0000
231.0;-0.3006
231.5;0.2977
232.0;0.3687
232.5;0.2769
233.0;0.1455
233.5;-0.1467
234.0;0.1325
234.5;0.0310
235.0;-0.0917
235.5;0.0532
236.0;-0.6360
236.5;8.0000
237.0;0.4854
237.5;0.2743
238.0;-0.6650
238.5;0.0829
239.0;-0.6405
239.5;-4.4092
240.0;0.1877
240.5;0.7316
241.0;0.1675
241.5;-0.3104
242.0;0.4016
242.5;0.1448
243.0;0.8106
243.5;-0.0158
244.0;8.0000
244.5;-0.7474
245.0;0.1676
245.5;-3.8256
246.0;-4.2941
246.5;-0.5719
247.0;0.6390
247.5;-0.0107
248.0;-0.7525
248.5;8.0000
249.0;3.7990
249.5;-0.4536
250.0;0.2821
250.5;0.3947
251.0;-0.1384
251.5;-0.3422
252.0;-0.0458
252.5;1.2757
253.0;-0.4882
253.5;-4.6925
254.0;0.5584
254.5;0.3712
255.0;-0.1408
255.5;1.4998
256.0;-1.9536
256.5;-0.3083
257.0;0.1957
257.5;-0.6556
258.0;0.1484
258.5;-0.0824
259.0;0.3359
259.5;0.0350
260.0;2.3467
260.5;0.3699
261.0;0.1313
261.5;-0.0565
262.0;0.2174
262.5;-0.2568
263.0;-0.0003
263.5;-4.7624
264.0;-0.0072
264.5;-0.3574
265.0;-0.0856
265.5;0.0332
266.0;-0.0617
266.5;-0.0967
267.0;-0.5178
267.5;8.0000
268.0;-0.1157
268.5;8.0000
269.0;-0.3229
269.5;0.0863
270.0;0.3778
270.5;-0.0776
271.0;-0.1529
271.5;0.5170
272.0;-0.0289
272.5;-0.3297
273.0;-0.1272
273.5;0.3941
274.0;0.1271
274.5;0.1648
275.0;0.0502
275.5;-0.0294
276.0;0.0351
276.5;0.1040
277.0;-0.1640
277.5;0.3882
278.0;-0.0200
278.5;0.1551
279.0;0.0263
279.5;0.1097
280.0;0.3638
280.5;0.0903
281.0;0.4110
281.5;0.2280
282.0;0.3324
282.5;0.3680
283.0;0.3432
283.5;0.3213
284.0;0.3050
284.5;0.2890
285.0;0.2772
285.5;0.2686
286.0;0.2608
286.5;0.2532
287.0;0.2485
287.5;0.2451
288.0;0.2408
288.5;0.2389
289.0;0.2364
289.5;0.2350
290.0;0.2336
290.5;0.2314
291.0;0.2307
291.5;0.2288
292.0;0.2290
292.5;0.2281
293.0;0.2261
293.5;0.2261
294.0;0.2247
294.5;0.2233
295.0;0.2244
295.5;0.2224
296.0;0.2230
296.5;0.2228
297.0;0.2224
297.5;0.2221
298.0;0.2212
298.5;0.2225
299.0;0.2214
299.5;0.2228
300.0;0.2244
300.5;0.2241
301.0;0.2246
301.5;0.2265
302.0;0.2271
302.5;0.2278
303.0;0.2300
303.5;0.2303
304.0;0.2314
304.5;0.2335
305.0;0.2339
305.5;0.2353
306.0;0.2367
306.5;0.2380
307.0;0.2383
307.5;0.2405
308.0;0.2416
308.5;0.2420
309.0;0.2443
309.5;0.2437
310.0;0.2464
310.5;0.2475
311.0;0.2496
311.5;0.2506
312.0;0.2511
312.5;0.2532
313.0;0.2552
313.5;0.2567
314.0;0.2573
314.5;0.2600
315.0;0.2607
315.5;0.2611
316.0;0.2615
316.5;0.2620
317.0;0.2615
317.5;0.2590
318.0;0.2598
318.5;0.2589
319.0;0.2576
319.5;0.2561
320.0;0.2539
320.5;0.2498
321.0;0.2465
321.5;0.2426
322.0;0.2411
322.5;0.2366
323.0;0.2356
323.5;0.2308
324.0;0.2223
324.5;0.2248
325.0;0.2201
325.5;0.2168
326.0;0.2147
326.5;0.2115
327.0;0.2066
327.5;0.2061
328.0;0.2021
328.5;0.2006
329.0;0.1973
329.5;0.1952
330.0;0.1926
330.5;0.1906
331.0;0.1895
331.5;0.1875
332.0;0.1853
332.5;0.1841
333.0;0.1813
333.5;0.1800
334.0;0.1782
334.5;0.1781
335.0;0.1759
335.5;0.1747
336.0;0.1750
336.5;0.1735
337.0;0.1730
337.5;0.1722
338.0;0.1719
338.5;0.1721
339.0;0.1709
339.5;0.1709
340.0;0.1698
340.5;0.1699
341.0;0.1691
341.5;0.1687
342.0;0.1690
342.5;0.1689
343.0;0.1686
343.5;0.1685
344.0;0.1690
344.5;0.1692
345.0;0.1687
345.5;0.1689
346.0;0.1691
346.5;0.1689
347.0;0.1687
347.5;0.1691
348.0;0.1696
348.5;0.1692
349.0;0.1693
349.5;0.1696
350.0;0.1690
350.5;0.1691
351.0;0.1693
351.5;0.1688
352.0;0.1685
352.5;0.1678
353.0;0.1684
353.5;0.1672
354.0;0.1666
354.5;0.1661
355.0;0.1648
355.5;0.1650
356.0;0.1640
356.5;0.1634
357.0;0.1619
357.5;0.1602
358.0;0.1596
358.5;0.1581
359.0;0.1560
359.5;0.1547
360.0;0.1533
360.5;0.1516
361.0;0.1506
361.5;0.1483
362.0;0.1466
362.5;0.1439
363.0;0.1427
363.5;0.1398
364.0;0.1392
364.5;0.1376
365.0;0.1343
365.5;0.1329
366.0;0.1316
366.5;0.1283
367.0;0.1274
367.5;0.1260
368.0;0.1228
368.5;0.1222
369.0;0.1194
369.5;0.1175
370.0;0.1174
370.5;0.1151
371.0;0.1138
371.5;0.1126
372.0;0.1112
372.5;0.1091
373.0;0.1094
373.5;0.1080
374.0;0.1077
374.5;0.1070
375.0;0.1068
375.5;0.1071
376.0;0.1067
376.5;0.1071
377.0;0.1072
377.5;0.1081
378.0;0.1080
378.5;0.1081
379.0;0.1086
379.5;0.1095
380.0;0.1100
380.5;0.1109
381.0;0.1112
381.5;0.1118
382.0;0.1128
382.5;0.1138
383.0;0.1141
383.5;0.1149
384.0;0.1162
384.5;0.1170
385.0;0.1187
385.5;0.1206
386.0;0.1226
386.5;0.1250
387.0;0.1282
387.5;0.1314
388.0;0.1362
388.5;0.1410
389.0;0.1479
389.5;0.1548
390.0;0.1641
390.5;0.1742
391.0;0.1856
391.5;0.1988
392.0;0.2133
392.5;0.2306
393.0;0.2495
393.5;0.2697
394.0;0.2918
394.5;0.3158
395.0;0.3407
395.5;0.3672
396.0;0.3949
396.5;0.4215
397.0;0.4497
397.5;0.4774
398.0;0.5045
398.5;0.5299
399.0;0.5548
399.5;0.5769
400.0;0.5917
400.5;0.6135
401.0;0.6285
401.5;0.6402
402.0;0.6482
402.5;0.6536
403.0;0.6569
403.5;0.6591
404.0;0.6596
404.5;0.6594
405.0;0.6603
405.5;0.6634
406.0;0.6692
406.5;0.6788
407.0;0.6932
407.5;0.7143
408.0;0.7426
408.5;0.7787
409.0;0.8251
409.5;0.8810
410.0;0.9486
410.5;1.0302
411.0;1.1252
411.5;1.2370
412.0;1.3656
412.5;1.5143
413.0;1.6851
413.5;1.8788
414.0;2.0849
414.5;2.3182
415.0;2.5604
415.5;2.8062
416.0;2.9834
416.5;3.1702
417.0;3.2696
417.5;3.3314
418.0;3.3032
418.5;3.3203
419.0;3.2944
419.5;3.3354
420.0;3.3154
420.5;3.3126
421.0;3.3946
421.5;3.3460
422.0;3.2963
422.5;3.3058
423.0;3.2968
423.5;3.3813
424.0;3.3625
424.5;3.2795
425.0;3.3900
425.5;3.2905
426.0;3.3290
426.5;3.2724
427.0;3.3286
427.5;3.2877
428.0;3.2264
428.5;3.1515
429.0;3.1032
429.5;2.9841
430.0;2.7558
430.5;2.4578
431.0;2.1563
431.5;1.8650
432.0;1.6024
432.5;1.3677
433.0;1.1602
433.5;0.9800
434.0;0.8235
434.5;0.6894
435.0;0.5748
435.5;0.4793
436.0;0.3982
436.5;0.3303
437.0;0.2747
437.5;0.2279
438.0;0.1896
438.5;0.1576
439.0;0.1314
439.5;0.1100
440.0;0.0920
440.5;0.0772
441.0;0.0649
441.5;0.0547
442.0;0.0469
442.5;0.0402
443.0;0.0351
443.5;0.0304
444.0;0.0263
444.5;0.0237
445.0;0.0213
445.5;0.0193
446.0;0.0178
446.5;0.0165
447.0;0.0153
447.5;0.0144
448.0;0.0137
448.5;0.0130
449.0;0.0126
449.5;0.0121
450.0;0.0118
450.5;0.0115
451.0;0.0112
451.5;0.0110
452.0;0.0107
452.5;0.0108
453.0;0.0106
453.5;0.0107
454.0;0.0107
454.5;0.0103
455.0;0.0104
455.5;0.0105
456.0;0.0103
456.5;0.0104
457.0;0.0104
457.5;0.0103
458.0;0.0103
458.5;0.0102
459.0;0.0104
459.5;0.0101
460.0;0.0102
460.5;0.0105
461.0;0.0106
461.5;0.0107
462.0;0.0106
462.5;0.0110
463.0;0.0113
463.5;0.0114
464.0;0.0115
464.5;0.0116
465.0;0.0118
465.5;0.0120
466.0;0.0120
466.5;0.0124
467.0;0.0129
467.5;0.0130
468.0;0.0133
468.5;0.0137
469.0;0.0141
469.5;0.0143
470.0;0.0147
470.5;0.0151
471.0;0.0155
471.5;0.0161
472.0;0.0164
472.5;0.0168
473.0;0.0173
473.5;0.0177
474.0;0.0180
474.5;0.0186
475.0;0.0191
475.5;0.0195
476.0;0.0199
476.5;0.0204
477.0;0.0207
477.5;0.0211
478.0;0.0215
478.5;0.0219
479.0;0.0223
479.5;0.0225
480.0;0.0228
480.5;0.0230
481.0;0.0233
481.5;0.0236
482.0;0.0238
482.5;0.0239
483.0;0.0239
483.5;0.0240
484.0;0.0242
484.5;0.0243
485.0;0.0243
485.5;0.0243
486.0;0.0243
486.5;0.0243
487.0;0.0243
487.5;0.0243
488.0;0.0242
488.5;0.0241
489.0;0.0242
489.5;0.0242
490.0;0.0242
490.5;0.0243
491.0;0.0242
491.5;0.0243
492.0;0.0244
492.5;0.0246
493.0;0.0247
493.5;0.0248
494.0;0.0252
494.5;0.0255
495.0;0.0259
495.5;0.0262
496.0;0.0267
496.5;0.0272
497.0;0.0278
497.5;0.0285
498.0;0.0290
498.5;0.0296
499.0;0.0304
499.5;0.0311
500.0;0.0319
500.5;0.0326
501.0;0.0335
501.5;0.0344
502.0;0.0353
502.5;0.0362
503.0;0.0370
503.5;0.0377
504.0;0.0386
504.5;0.0393
505.0;0.0402
505.5;0.0409
506.0;0.0417
506.5;0.0423
507.0;0.0428
507.5;0.0435
508.0;0.0441
508.5;0.0446
509.0;0.0450
509.5;0.0455
510.0;0.0458
510.5;0.0460
511.0;0.0462
511.5;0.0465
512.0;0.0466
512.5;0.0467
513.0;0.0467
513.5;0.0466
514.0;0.0464
514.5;0.0463
515.0;0.0460
515.5;0.0457
516.0;0.0454
516.5;0.0451
517.0;0.0447
517.5;0.0444
518.0;0.0441
518.5;0.0438
519.0;0.0435
519.5;0.0433
520.0;0.0431
520.5;0.0431
521.0;0.0430
521.5;0.0432
522.0;0.0434
522.5;0.0438
523.0;0.0443
523.5;0.0451
524.0;0.0460
524.5;0.0471
525.0;0.0483
525.5;0.0498
526.0;0.0516
526.5;0.0536
527.0;0.0557
527.5;0.0582
528.0;0.0609
528.5;0.0638
529.0;0.0671
529.5;0.0704
530.0;0.0742
530.5;0.0782
531.0;0.0825
531.5;0.0872
532.0;0.0921
532.5;0.0976
533.0;0.1033
533.5;0.1096
534.0;0.1161
534.5;0.1233
535.0;0.1308
535.5;0.1388
536.0;0.1472
536.5;0.1559
537.0;0.1649
537.5;0.1743
538.0;0.1841
538.5;0.1940
539.0;0.2042
539.5;0.2147
540.0;0.2252
540.5;0.2358
541.0;0.2464
541.5;0.2571
542.0;0.2676
542.5;0.2778
543.0;0.2880
543.5;0.2979
544.0;0.3076
544.5;0.3170
545.0;0.3261
545.5;0.3348
546.0;0.3429
546.5;0.3505
547.0;0.3574
547.5;0.3634
548.0;0.3684
548.5;0.3723
549.0;0.3750
549.5;0.3765
550.0;0.3767
550.5;0.3755
551.0;0.3731
551.5;0.3694
552.0;0.3645
552.5;0.3582
553.0;0.3508
553.5;0.3424
554.0;0.3330
554.5;0.3229
555.0;0.3122
555.5;0.3007
556.0;0.2890
556.5;0.2770
557.0;0.2648
557.5;0.2524
558.0;0.2403
558.5;0.2282
559.0;0.2163
559.5;0.2047
560.0;0.1932
560.5;0.1822
561.0;0.1714
561.5;0.1610
562.0;0.1513
562.5;0.1418
563.0;0.1327
563.5;0.1241
564.0;0.1163
564.5;0.1087
565.0;0.1015
565.5;0.0949
566.0;0.0887
566.5;0.0830
567.0;0.0775
567.5;0.0727
568.0;0.0681
568.5;0.0638
569.0;0.0597
569.5;0.0562
570.0;0.0528
570.5;0.0498
571.0;0.0471
571.5;0.0446
572.0;0.0424
572.5;0.0404
573.0;0.0386
573.5;0.0371
574.0;0.0358
574.5;0.0346
575.0;0.0337
575.5;0.0331
576.0;0.0326
576.5;0.0322
577.0;0.0322
577.5;0.0323
578.0;0.0326
578.5;0.0330
579.0;0.0336
579.5;0.0345
580.0;0.0353
580.5;0.0365
581.0;0.0377
581.5;0.0391
582.0;0.0406
582.5;0.0421
583.0;0.0439
583.5;0.0455
584.0;0.0472
584.5;0.0488
585.0;0.0505
585.5;0.0520
586.0;0.0534
586.5;0.0545
587.0;0.0555
587.5;0.0563
588.0;0.0567
588.5;0.0570
589.0;0.0570
589.5;0.0567
590.0;0.0559
590.5;0.0552
591.0;0.0542
591.5;0.0529
592.0;0.0514
592.5;0.0497
593.0;0.0479
593.5;0.0460
594.0;0.0440
594.5;0.0419
595.0;0.0397
595.5;0.0376
596.0;0.0354
596.5;0.0333
597.0;0.0312
597.5;0.0291
598.0;0.0271
598.5;0.0252
599.0;0.0234
599.5;0.0216
600.0;0.0199
600.5;0.0183
601.0;0.0169
601.5;0.0154
602.0;0.0141
602.5;0.0128
603.0;0.0116
603.5;0.0106
604.0;0.0096
604.5;0.0087
605.0;0.0078
605.5;0.0070
606.0;0.0062
606.5;0.0056
607.0;0.0050
607.5;0.0044
608.0;0.0040
608.5;0.0036
609.0;0.0032
609.5;0.0028
610.0;0.0026
610.5;0.0025
611.0;0.0022
611.5;0.0021
612.0;0.0020
612.5;0.0020
613.0;0.0020
613.5;0.0021
614.0;0.0022
614.5;0.0026
615.0;0.0027
615.5;0.0031
616.0;0.0034
616.5;0.0040
617.0;0.0044
617.5;0.0049
618.0;0.0055
618.5;0.0061
619.0;0.0067
619.5;0.0073
620.0;0.0077
620.5;0.0081
621.0;0.0083
621.5;0.0085
622.0;0.0086
622.5;0.0084
623.0;0.0082
623.5;0.0079
624.0;0.0074
624.5;0.0070
625.0;0.0062
625.5;0.0056
626.0;0.0049
626.5;0.0042
627.0;0.0034
627.5;0.0028
628.0;0.0021
628.5;0.0015
629.0;0.0010
629.5;0.0003
630.0;-0.0002
630.5;-0.0006
631.0;-0.0009
631.5;-0.0014
632.0;-0.0018
632.5;-0.0020
633.0;-0.0023
633.5;-0.0025
634.0;-0.0027
634.5;-0.0029
635.0;-0.0031
635.5;-0.0032
636.0;-0.0033
636.5;-0.0034
637.0;-0.0036
637.5;-0.0036
638.0;-0.0037
638.5;-0.0037
639.0;-0.0038
639.5;-0.0038
640.0;-0.0039
640.5;-0.0040
641.0;-0.0039
641.5;-0.0040
642.0;-0.0041
642.5;-0.0041
643.0;-0.0041
643.5;-0.0042
644.0;-0.0041
644.5;-0.0041
645.0;-0.0043
645.5;-0.0043
646.0;-0.0042
646.5;-0.0043
647.0;-0.0043
647.5;-0.0043
648.0;-0.0044
648.5;-0.0043
649.0;-0.0043
649.5;-0.0044
650.0;-0.0043
650.5;-0.0043
651.0;-0.0043
651.5;-0.0043
652.0;-0.0044
652.5;-0.0044
653.0;-0.0044
653.5;-0.0043
654.0;-0.0044
654.5;-0.0044
655.0;-0.0044
655.5;-0.0044
656.0;-0.0044
656.5;-0.0044
657.0;-0.0044
657.5;-0.0044
658.0;-0.0044
658.5;-0.0044
659.0;-0.0044
659.5;-0.0044
660.0;-0.0043
660.5;-0.0044
661.0;-0.0044
661.5;-0.0043
662.0;-0.0044
662.5;-0.0043
663.0;-0.0043
663.5;-0.0043
664.0;-0.0043
664.5;-0.0043
665.0;-0.0043
665.5;-0.0043
666.0;-0.0043
666.5;-0.0042
667.0;-0.0042
667.5;-0.0042
668.0;-0.0042
668.5;-0.0042
669.0;-0.0041
669.5;-0.0042
670.0;-0.0042
670.5;-0.0041
671.0;-0.0042
671.5;-0.0041
672.0;-0.0042
672.5;-0.0042
673.0;-0.0042
673.5;-0.0042
674.0;-0.0043
674.5;-0.0042
675.0;-0.0043
675.5;-0.0042
676.0;-0.0042
676.5;-0.0042
677.0;-0.0043
677.5;-0.0043
678.0;-0.0042
678.5;-0.0042
679.0;-0.0043
679.5;-0.0042
680.0;-0.0042
680.5;-0.0042
681.0;-0.0043
681.5;-0.0043
682.0;-0.0042
682.5;-0.0042
683.0;-0.0042
683.5;-0.0042
684.0;-0.0043
684.5;-0.0043
685.0;-0.0042
685.5;-0.0042
686.0;-0.0042
686.5;-0.0043
687.0;-0.0043
687.5;-0.0043
688.0;-0.0042
688.5;-0.0042
689.0;-0.0043
689.5;-0.0042
690.0;-0.0042
690.5;-0.0042
691.0;-0.0042
691.5;-0.0042
692.0;-0.0042
692.5;-0.0042
693.0;-0.0043
693.5;-0.0042
694.0;-0.0042
694.5;-0.0041
695.0;-0.0042
695.5;-0.0041
696.0;-0.0042
696.5;-0.0042
697.0;-0.0042
697.5;-0.0042
698.0;-0.0041
698.5;-0.0042
699.0;-0.0042
699.5;-0.0041
700.0;-0.0042
700.5;-0.0042
701.0;-0.0041
701.5;-0.0041
702.0;-0.0041
702.5;-0.0042
703.0;-0.0041
703.5;-0.0041
704.0;-0.0041
704.5;-0.0041
705.0;-0.0040
705.5;-0.0041
706.0;-0.0041
706.5;-0.0040
707.0;-0.0040
707.5;-0.0040
708.0;-0.0040
708.5;-0.0040
709.0;-0.0040
709.5;-0.0041
710.0;-0.0040
710.5;-0.0040
711.0;-0.0040
711.5;-0.0040
712.0;-0.0040
712.5;-0.0040
713.0;-0.0040
713.5;-0.0040
714.0;-0.0040
714.5;-0.0040
715.0;-0.0039
715.5;-0.0039
716.0;-0.0040
716.5;-0.0039
717.0;-0.0039
717.5;-0.0039
718.0;-0.0039
718.5;-0.0039
719.0;-0.0039
719.5;-0.0040
720.0;-0.0039
720.5;-0.0039
721.0;-0.0039
721.5;-0.0038
722.0;-0.0038
722.5;-0.0038
723.0;-0.0038
723.5;-0.0038
724.0;-0.0038
724.5;-0.0038
725.0;-0.0038
725.5;-0.0038
726.0;-0.0038
726.5;-0.0038
727.0;-0.0037
727.5;-0.0038
728.0;-0.0037
728.5;-0.0038
729.0;-0.0038
729.5;-0.0038
730.0;-0.0037
730.5;-0.0038
731.0;-0.0037
731.5;-0.0037
732.0;-0.0038
732.5;-0.0036
733.0;-0.0037
733.5;-0.0038
734.0;-0.0037
734.5;-0.0037
735.0;-0.0036
735.5;-0.0037
736.0;-0.0037
736.5;-0.0037
737.0;-0.0037
737.5;-0.0037
738.0;-0.0036
738.5;-0.0036
739.0;-0.0036
739.5;-0.0036
740.0;-0.0036
740.5;-0.0037
741.0;-0.0037
741.5;-0.0035
742.0;-0.0036
742.5;-0.0035
743.0;-0.0037
743.5;-0.0035
744.0;-0.0035
744.5;-0.0036
745.0;-0.0036
745.5;-0.0035
746.0;-0.0035
746.5;-0.0036
747.0;-0.0035
747.5;-0.0035
748.0;-0.0035
748.5;-0.0035
749.0;-0.0035
749.5;-0.0035
750.0;-0.0035
750.5;-0.0035
751.0;-0.0035
751.5;-0.0035
752.0;-0.0035
752.5;-0.0035
753.0;-0.0035
753.5;-0.0034
754.0;-0.0034
754.5;-0.0035
755.0;-0.0034
755.5;-0.0035
756.0;-0.0034
756.5;-0.0034
757.0;-0.0034
757.5;-0.0034
758.0;-0.0034
758.5;-0.0034
759.0;-0.0034
759.5;-0.0033
760.0;-0.0034
760.5;-0.0034
761.0;-0.0034
761.5;-0.0034
762.0;-0.0033
762.5;-0.0033
763.0;-0.0033
763.5;-0.0033
764.0;-0.0033
764.5;-0.0033
765.0;-0.0033
765.5;-0.0034
766.0;-0.0033
766.5;-0.0032
767.0;-0.0033
767.5;-0.0032
768.0;-0.0033
768.5;-0.0032
769.0;-0.0032
769.5;-0.0032
770.0;-0.0032
770.5;-0.0032
771.0;-0.0032
771.5;-0.0033
772.0;-0.0031
772.5;-0.0032
773.0;-0.0032
773.5;-0.0032
774.0;-0.0032
774.5;-0.0031
775.0;-0.0031
775.5;-0.0031
776.0;-0.0031
776.5;-0.0032
777.0;-0.0032
777.5;-0.0031
778.0;-0.0031
778.5;-0.0031
779.0;-0.0031
779.5;-0.0032
780.0;-0.0031
780.5;-0.0031
781.0;-0.0031
781.5;-0.0031
782.0;-0.0031
782.5;-0.0030
783.0;-0.0031
783.5;-0.0030
784.0;-0.0030
784.5;-0.0030
785.0;-0.0031
785.5;-0.0031
786.0;-0.0030
786.5;-0.0031
787.0;-0.0030
787.5;-0.0030
788.0;-0.0030
788.5;-0.0030
789.0;-0.0030
789.5;-0.0029
790.0;-0.0030
790.5;-0.0029
791.0;-0.0029
791.5;-0.0030
792.0;-0.0030
792.5;-0.0029
793.0;-0.0030
793.5;-0.0029
794.0;-0.0029
794.5;-0.0029
795.0;-0.0029
795.5;-0.0029
796.0;-0.0029
796.5;-0.0028
797.0;-0.0029
797.5;-0.0029
798.0;-0.0029
798.5;-0.0028
799.0;-0.0028
799.5;-0.0028
800.0;-0.0028
800.5;-0.0028
801.0;-0.0029
801.5;-0.0028
802.0;-0.0028
802.5;-0.0028
803.0;-0.0028
803.5;-0.0028
804.0;-0.0029
804.5;-0.0027
805.0;-0.0028
805.5;-0.0028
806.0;-0.0027
806.5;-0.0028
807.0;-0.0028
807.5;-0.0027
808.0;-0.0028
808.5;-0.0028
809.0;-0.0027
809.5;-0.0028
810.0;-0.0028
810.5;-0.0027
811.0;-0.0028
811.5;-0.0027
812.0;-0.0028
812.5;-0.0027
813.0;-0.0027
813.5;-0.0028
814.0;-0.0028
814.5;-0.0029
815.0;-0.0029
815.5;-0.0028
816.0;-0.0028
816.5;-0.0027
817.0;-0.0027
817.5;-0.0028
818.0;-0.0027
818.5;-0.0028
819.0;-0.0027
819.5;-0.0027
820.0;-0.0028
820.5;-0.0028
821.0;-0.0028
821.5;-0.0027
822.0;-0.0028
822.5;-0.0027
823.0;-0.0027
823.5;-0.0028
824.0;-0.0028
824.5;-0.0028
825.0;-0.0028
825.5;-0.0028
826.0;-0.0029
826.5;-0.0028
827.0;-0.0029
827.5;-0.0030
828.0;-0.0029
828.5;-0.0029
829.0;-0.0029
829.5;-0.0030
830.0;-0.0030
830.5;-0.0029
831.0;-0.0029
831.5;-0.0030
832.0;-0.0029
832.5;-0.0030
833.0;-0.0030
833.5;-0.0029
834.0;-0.0029
834.5;-0.0029
835.0;-0.0030
835.5;-0.0029
836.0;-0.0030
836.5;-0.0029
837.0;-0.0030
837.5;-0.0029
838.0;-0.0030
838.5;-0.0030
839.0;-0.0030
839.5;-0.0029
840.0;-0.0030
840.5;-0.0030
841.0;-0.0031
841.5;-0.0030
842.0;-0.0030
842.5;-0.0030
843.0;-0.0030
843.5;-0.0031
844.0;-0.0031
844.5;-0.0031
845.0;-0.0031
845.5;-0.0031
846.0;-0.0031
846.5;-0.0032
847.0;-0.0032
847.5;-0.0031
848.0;-0.0031
848.5;-0.0031
849.0;-0.0031
849.5;-0.0032
850.0;-0.0032
850.5;-0.0032
851.0;-0.0033
851.5;-0.0032
852.0;-0.0033
852.5;-0.0033
853.0;-0.0033
853.5;-0.0033
854.0;-0.0033
854.5;-0.0033
855.0;-0.0033
855.5;-0.0033
856.0;-0.0034
856.5;-0.0034
857.0;-0.0034
857.5;-0.0034
858.0;-0.0035
858.5;-0.0035
859.0;-0.0035
859.5;-0.0035
860.0;-0.0035
860.5;-0.0035
861.0;-0.0036
861.5;-0.0036
862.0;-0.0035
862.5;-0.0036
863.0;-0.0037
863.5;-0.0036
864.0;-0.0036
864.5;-0.0037
865.0;-0.0037
865.5;-0.0036
866.0;-0.0037
866.5;-0.0036
867.0;-0.0037
867.5;-0.0037
868.0;-0.0037
868.5;-0.0038
869.0;-0.0037
869.5;-0.0038
870.0;-0.0039
870.5;-0.0039
871.0;-0.0038
871.5;-0.0039
872.0;-0.0039
872.5;-0.0039
873.0;-0.0039
873.5;-0.0039
874.0;-0.0040
874.5;-0.0039
875.0;-0.0039
875.5;-0.0039
876.0;-0.0039
876.5;-0.0040
877.0;-0.0040
877.5;-0.0039
878.0;-0.0040
878.5;-0.0040
879.0;-0.0040
879.5;-0.0040
880.0;-0.0040
880.5;-0.0041
881.0;-0.0040
881.5;-0.0041
882.0;-0.0040
882.5;-0.0041
883.0;-0.0040
883.5;-0.0041
884.0;-0.0040
884.5;-0.0041
885.0;-0.0041
885.5;-0.0041
886.0;-0.0041
886.5;-0.0041
887.0;-0.0040
887.5;-0.0041
888.0;-0.0041
888.5;-0.0040
889.0;-0.0041
889.5;-0.0040
890.0;-0.0041
890.5;-0.0041
891.0;-0.0040
891.5;-0.0041
892.0;-0.0041
892.5;-0.0041
893.0;-0.0041
893.5;-0.0042
894.0;-0.0042
894.5;-0.0041
895.0;-0.0042
895.5;-0.0042
896.0;-0.0042
896.5;-0.0042
897.0;-0.0041
897.5;-0.0043
898.0;-0.0042
898.5;-0.0042
899.0;-0.0042
899.5;-0.0043
900.0;-0.0043
900.5;-0.0043
901.0;-0.0042
901.5;-0.0043
902.0;-0.0043
902.5;-0.0044
903.0;-0.0043
903.5;-0.0043
904.0;-0.0043
904.5;-0.0043
905.0;-0.0043
905.5;-0.0044
906.0;-0.0044
906.5;-0.0043
907.0;-0.0044
907.5;-0.0043
908.0;-0.0044
908.5;-0.0044
909.0;-0.0044
909.5;-0.0044
910.0;-0.0045
910.5;-0.0044
911.0;-0.0045
911.5;-0.0045
912.0;-0.0044
912.5;-0.0045
913.0;-0.0045
913.5;-0.0045
914.0;-0.0045
914.5;-0.0045
915.0;-0.0045
915.5;-0.0045
916.0;-0.0044
916.5;-0.0044
917.0;-0.0045
917.5;-0.0045
918.0;-0.0045
918.5;-0.0045
919.0;-0.0046
919.5;-0.0045
920.0;-0.0045
920.5;-0.0045
921.0;-0.0046
921.5;-0.0045
922.0;-0.0046
922.5;-0.0045
923.0;-0.0045
923.5;-0.0045
924.0;-0.0046
924.5;-0.0046
925.0;-0.0046
925.5;-0.0046
926.0;-0.0046
926.5;-0.0046
927.0;-0.0046
927.5;-0.0046
928.0;-0.0045
928.5;-0.0045
929.0;-0.0046
929.5;-0.0045
930.0;-0.0045
930.5;-0.0046
931.0;-0.0046
931.5;-0.0045
932.0;-0.0046
932.5;-0.0046
933.0;-0.0046
933.5;-0.0046
934.0;-0.0046
934.5;-0.0046
935.0;-0.0047
935.5;-0.0047
936.0;-0.0047
936.5;-0.0047
937.0;-0.0047
937.5;-0.0047
938.0;-0.0046
938.5;-0.0046
939.0;-0.0046
939.5;-0.0047
940.0;-0.0046
940.5;-0.0047
941.0;-0.0047
941.5;-0.0047
942.0;-0.0047
942.5;-0.0047
943.0;-0.0047
943.5;-0.0047
944.0;-0.0048
944.5;-0.0047
945.0;-0.0047
945.5;-0.0047
946.0;-0.0047
946.5;-0.0047
947.0;-0.0047
947.5;-0.0048
948.0;-0.0048
948.5;-0.0047
949.0;-0.0047
949.5;-0.0048
950.0;-0.0048
950.5;-0.0048
951.0;-0.0048
951.5;-0.0048
952.0;-0.0048
952.5;-0.0048
953.0;-0.0048
953.5;-0.0048
954.0;-0.0048
954.5;-0.0048
955.0;-0.0048
955.5;-0.0048
956.0;-0.0048
956.5;-0.0049
957.0;-0.0048
957.5;-0.0048
958.0;-0.0048
958.5;-0.0048
959.0;-0.0048
959.5;-0.0049
960.0;-0.0049
960.5;-0.0049
961.0;-0.0049
961.5;-0.0048
962.0;-0.0049
962.5;-0.0049
963.0;-0.0048
963.5;-0.0048
964.0;-0.0048
964.5;-0.0049
965.0;-0.0048
965.5;-0.0049
966.0;-0.0049
966.5;-0.0049
967.0;-0.0049
967.5;-0.0049
968.0;-0.0049
968.5;-0.0049
969.0;-0.0049
969.5;-0.0048
970.0;-0.0049
970.5;-0.0049
971.0;-0.0049
971.5;-0.0049
972.0;-0.0049
972.5;-0.0049
973.0;-0.0050
973.5;-0.0050
974.0;-0.0050
974.5;-0.0049
975.0;-0.0049
975.5;-0.0049
976.0;-0.0050
976.5;-0.0049
977.0;-0.0050
977.5;-0.0049
978.0;-0.0049
978.5;-0.0049
979.0;-0.0049
979.5;-0.0049
980.0;-0.0049
980.5;-0.0048
981.0;-0.0050
981.5;-0.0049
982.0;-0.0049
982.5;-0.0050
983.0;-0.0050
983.5;-0.0050
984.0;-0.0049
984.5;-0.0049
985.0;-0.0049
985.5;-0.0049
986.0;-0.0049
986.5;-0.0049
987.0;-0.0049
987.5;-0.0049
988.0;-0.0049
988.5;-0.0050
989.0;-0.0049
989.5;-0.0049
990.0;-0.0049
990.5;-0.0049
991.0;-0.0049
991.5;-0.0049
992.0;-0.0050
992.5;-0.0049
993.0;-0.0049
993.5;-0.0049
994.0;-0.0049
994.5;-0.0048
995.0;-0.0049
995.5;-0.0049
996.0;-0.0050
996.5;-0.0049
997.0;-0.0049
997.5;-0.0049
998.0;-0.0049
998.5;-0.0049
999.0;-0.0049
999.5;-0.0049
1000.0;-0.0049
1000.5;-0.0049
1001.0;-0.0048
1001.5;-0.0049
1002.0;-0.0049
1002.5;-0.0049
1003.0;-0.0048
1003.5;-0.0049
1004.0;-0.0048
1004.5;-0.0049
1005.0;-0.0048
1005.5;-0.0048
1006.0;-0.0048
1006.5;-0.0048
1007.0;-0.0048
1007.5;-0.0048
1008.0;-0.0048
1008.5;-0.0048
1009.0;-0.0047
1009.5;-0.0047
1010.0;-0.0047
1010.5;-0.0046
1011.0;-0.0047
1011.5;-0.0047
1012.0;-0.0048
1012.5;-0.0047
1013.0;-0.0047
1013.5;-0.0047
1014.0;-0.0046
1014.5;-0.0047
1015.0;-0.0046
1015.5;-0.0047
1016.0;-0.0047
1016.5;-0.0046
1017.0;-0.0046
1017.5;-0.0047
1018.0;-0.0046
1018.5;-0.0046
1019.0;-0.0046
1019.5;-0.0046
1020.0;-0.0046
1020.5;-0.0046
1021.0;-0.0046
1021.5;-0.0046
1022.0;-0.0046
1022.5;-0.0045
1023.0;-0.0046
1023.5;-0.0046
1024.0;-0.0045
1024.5;-0.0044
1025.0;-0.0043
1025.5;-0.0045
1026.0;-0.0045
1026.5;-0.0045
1027.0;-0.0044
1027.5;-0.0044
1028.0;-0.0044
1028.5;-0.0043
1029.0;-0.0043
1029.5;-0.0043
1030.0;-0.0044
1030.5;-0.0043
1031.0;-0.0043
1031.5;-0.0043
1032.0;-0.0042
1032.5;-0.0043
1033.0;-0.0043
1033.5;-0.0042
1034.0;-0.0041
1034.5;-0.0041
1035.0;-0.0042
1035.5;-0.0041
1036.0;-0.0042
1036.5;-0.0041
1037.0;-0.0041
1037.5;-0.0041
1038.0;-0.0040
1038.5;-0.0040
1039.0;-0.0040
1039.5;-0.0040
1040.0;-0.0040
1040.5;-0.0039
1041.0;-0.0040
1041.5;-0.0039
1042.0;-0.0039
1042.5;-0.0039
1043.0;-0.0039
1043.5;-0.0038
1044.0;-0.0038
1044.5;-0.0038
1045.0;-0.0037
1045.5;-0.0038
1046.0;-0.0037
1046.5;-0.0037
1047.0;-0.0037
1047.5;-0.0037
1048.0;-0.0038
1048.5;-0.0038
1049.0;-0.0037
1049.5;-0.0036
1050.0;-0.0036
1050.5;-0.0034
1051.0;-0.0037
1051.5;-0.0037
1052.0;-0.0035
1052.5;-0.0036
1053.0;-0.0034
1053.5;-0.0034
1054.0;-0.0035
1054.5;-0.0036
1055.0;-0.0034
1055.5;-0.0035
1056.0;-0.0034
1056.5;-0.0033
1057.0;-0.0033
1057.5;-0.0033
1058.0;-0.0032
1058.5;-0.0032
1059.0;-0.0032
1059.5;-0.0033
1060.0;-0.0030
1060.5;-0.0030
1061.0;-0.0030
1061.5;-0.0030
1062.0;-0.0032
1062.5;-0.0031
1063.0;-0.0033
1063.5;-0.0032
1064.0;-0.0032
1064.5;-0.0032
1065.0;-0.0032
1065.5;-0.0032
1066.0;-0.0034
1066.5;-0.0035
1067.0;-0.0032
1067.5;-0.0033
1068.0;-0.0033
1068.5;-0.0033
1069.0;-0.0031
1069.5;-0.0033
1070.0;-0.0032
1070.5;-0.0034
1071.0;-0.0032
1071.5;-0.0033
1072.0;-0.0033
1072.5;-0.0033
1073.0;-0.0034
1073.5;-0.0032
1074.0;-0.0032
1074.5;-0.0030
1075.0;-0.0031
1075.5;-0.0031
1076.0;-0.0031
1076.5;-0.0031
1077.0;-0.0031
1077.5;-0.0029
1078.0;-0.0031
1078.5;-0.0031
1079.0;-0.0032
1079.5;-0.0029
1080.0;-0.0030
1080.5;-0.0031
1081.0;-0.0031
1081.5;-0.0031
1082.0;-0.0031
1082.5;-0.0032
1083.0;-0.0033
1083.5;-0.0030
1084.0;-0.0032
1084.5;-0.0030
1085.0;-0.0032
1085.5;-0.0031
1086.0;-0.0032
1086.5;-0.0030
1087.0;-0.0030
1087.5;-0.0031
1088.0;-0.0027
1088.5;-0.0030
1089.0;-0.0029
1089.5;-0.0030
1090.0;-0.0029
1090.5;-0.0029
1091.0;-0.0032
1091.5;-0.0030
1092.0;-0.0029
1092.5;-0.0031
1093.0;-0.0029
1093.5;-0.0029
1094.0;-0.0028
1094.5;-0.0028
1095.0;-0.0030
1095.5;-0.0028
1096.0;-0.0027
1096.5;-0.0032
1097.0;-0.0030
1097.5;-0.0025
1098.0;-0.0031
1098.5;-0.0029
1099.0;-0.0029
1099.5;-0.0027
1100.0;-0.0025
